# Trapping bound for operator=T, sim_name=SFHo-18.80, lepton=e
# using approach=exact, mfp_prescription=thermal
# Duration:	2024-07-21 11:51:39 -> 2024-07-21 18:16:25 (384.76min)
# Parameters:	sim_range=100, X_MAX=100.0, NSTEPS=50, vegas_kwargs={'nitn': 10, 'neval': 1000, 'alpha': 0.5}
# m_chi [MeV] / Lambda [TeV]
1.00e+00 4.49e-02
1.07e+00 4.49e-02
1.15e+00 4.50e-02
1.23e+00 4.51e-02
1.32e+00 4.52e-02
1.42e+00 4.53e-02
1.52e+00 4.54e-02
1.63e+00 4.55e-02
1.75e+00 4.56e-02
1.87e+00 4.58e-02
2.01e+00 4.59e-02
2.15e+00 4.61e-02
2.31e+00 4.63e-02
2.48e+00 4.65e-02
2.66e+00 4.67e-02
2.85e+00 4.69e-02
3.05e+00 4.76e-02
3.27e+00 4.79e-02
3.51e+00 4.82e-02
3.76e+00 4.85e-02
4.04e+00 4.89e-02
4.33e+00 4.93e-02
4.64e+00 5.01e-02
4.98e+00 5.06e-02
5.34e+00 5.11e-02
5.72e+00 5.21e-02
6.14e+00 5.27e-02
6.58e+00 5.38e-02
7.05e+00 5.44e-02
7.56e+00 5.56e-02
8.11e+00 5.69e-02
8.70e+00 5.82e-02
9.33e+00 5.96e-02
1.00e+01 6.11e-02
1.07e+01 6.26e-02
1.15e+01 6.43e-02
1.23e+01 6.60e-02
1.32e+01 6.83e-02
1.42e+01 7.03e-02
1.52e+01 7.29e-02
1.63e+01 7.50e-02
1.75e+01 7.79e-02
1.87e+01 8.10e-02
2.01e+01 8.42e-02
2.15e+01 8.76e-02
2.31e+01 9.12e-02
2.48e+01 9.50e-02
2.66e+01 9.98e-02
2.85e+01 1.04e-01
3.05e+01 1.09e-01
3.27e+01 1.14e-01
3.51e+01 1.19e-01
3.76e+01 1.25e-01
4.04e+01 1.32e-01
4.33e+01 1.38e-01
4.64e+01 1.46e-01
4.98e+01 1.53e-01
5.34e+01 1.60e-01
5.72e+01 1.68e-01
6.14e+01 1.77e-01
6.58e+01 1.87e-01
7.05e+01 1.95e-01
7.56e+01 2.06e-01
8.11e+01 2.15e-01
8.70e+01 2.28e-01
9.33e+01 2.39e-01
1.00e+02 2.55e-01
1.07e+02 2.67e-01
1.15e+02 2.85e-01
1.23e+02 2.99e-01
1.32e+02 3.20e-01
1.42e+02 3.37e-01
1.52e+02 3.61e-01
1.63e+02 3.81e-01
1.75e+02 4.10e-01
1.87e+02 4.32e-01
2.01e+02 4.66e-01
2.15e+02 4.92e-01
2.31e+02 5.31e-01
2.48e+02 5.61e-01
2.66e+02 6.05e-01
2.85e+02 6.40e-01
3.05e+02 6.91e-01
3.27e+02 7.46e-01
3.51e+02 8.05e-01
3.76e+02 8.67e-01
4.04e+02 9.34e-01
4.33e+02 1.00e+00
4.64e+02 nan
4.98e+02 nan
5.34e+02 nan
5.72e+02 nan
6.14e+02 nan
6.58e+02 nan
7.05e+02 nan
7.56e+02 nan
8.11e+02 nan
8.70e+02 nan
9.33e+02 nan
1.00e+03 nan
